# An Atlas of Galaxy Spectral Energy Distributions from the Ultraviolet to the Mid-Infrared
# Brown et al. (2014)
# http://dx.doi.org/10.5072/03/529D3551F0117
# 
# Column 1 : Restframe Wavelength (Angstrom)
# Column 2 : Flux per unit wavelength (ergs/s/cm^2/Angstrom)
# Column 3 : Observed wavelength (Angstrom)
# Column 4 : Source (0 = model, 1 = Optical Spectrum, 2 = Akari, 3 = Spitzer IRS)
# 
   102.00 1.8779e-23    105.68 0 
   103.90 2.4466e-23    107.65 0 
   106.07 3.2617e-23    109.90 0 
   108.04 4.4396e-23    111.94 0 
   110.05 6.8585e-23    114.02 0 
   113.92 1.1041e-22    118.03 0 
   117.92 1.6550e-22    122.18 0 
   120.95 7.2381e-22    125.31 0 
   124.91 1.0032e-21    129.42 0 
   126.94 1.1358e-21    131.52 0 
   128.11 1.2337e-21    132.74 0 
   131.10 1.4624e-21    135.83 0 
   132.01 1.7783e-21    136.77 0 
   134.15 1.9629e-21    139.00 0 
   136.96 2.6775e-21    141.91 0 
   140.15 3.1086e-21    145.21 0 
   143.09 9.0865e-21    148.25 0 
   147.10 2.2345e-20    152.41 0 
   150.87 2.6119e-20    156.31 0 
   155.10 3.0671e-20    160.69 0 
   159.07 3.6017e-20    164.82 0 
   162.03 4.0118e-20    167.88 0 
   166.19 4.6893e-20    172.19 0 
   170.06 5.3444e-20    176.20 0 
   172.82 5.9121e-20    179.06 0 
   176.85 6.6914e-20    183.23 0 
   180.14 7.3002e-20    186.64 0 
   181.80 7.7311e-20    188.36 0 
   186.04 8.6498e-20    192.75 0 
   190.81 9.9024e-20    197.70 0 
   193.91 1.0779e-19    200.91 0 
   197.97 1.1867e-19    205.12 0 
   202.12 1.3125e-19    209.41 0 
   204.93 1.4091e-19    212.32 0 
   210.18 1.5054e-19    217.77 0 
   216.07 1.7837e-19    223.87 0 
   220.09 1.9503e-19    228.03 0 
   223.15 2.0461e-19    231.21 0 
   226.78 2.2270e-19    234.96 0 
   229.93 3.2252e-19    238.23 0 
   234.21 4.9467e-19    242.66 0 
   240.21 6.4860e-19    248.89 0 
   245.81 6.4515e-19    254.68 0 
   252.12 7.2662e-19    261.22 0 
   256.80 6.3833e-19    266.07 0 
   259.78 7.5662e-19    269.15 0 
   264.00 8.1779e-19    273.53 0 
   268.91 8.4990e-19    278.61 0 
   273.90 8.7515e-19    283.79 0 
   279.00 9.0323e-19    289.07 0 
   284.18 9.3434e-19    294.44 0 
   290.13 9.2720e-19    300.61 0 
   296.21 9.7461e-19    306.90 0 
   301.02 9.8301e-19    311.89 0 
   308.03 1.0355e-18    319.15 0 
   318.13 1.1056e-18    329.61 0 
   327.79 1.1562e-18    339.63 0 
   337.75 1.1898e-18    349.95 0 
   348.02 1.2215e-18    360.58 0 
   356.94 1.2601e-18    369.83 0 
   366.10 1.3270e-18    379.31 0 
   374.63 1.3471e-18    388.15 0 
   385.12 1.3237e-18    399.02 0 
   395.00 1.4166e-18    409.26 0 
   405.13 1.4848e-18    419.76 0 
   413.62 1.4934e-18    428.55 0 
   422.28 1.4815e-18    437.52 0 
   430.13 1.4833e-18    445.66 0 
   441.16 1.5332e-18    457.09 0 
   451.44 1.5418e-18    467.74 0 
   459.83 1.5190e-18    476.43 0 
   469.46 1.5346e-18    486.41 0 
   480.40 1.5789e-18    497.74 0 
   490.46 1.5339e-18    508.16 0 
   499.57 1.6116e-18    517.61 0 
   506.52 1.7253e-18    524.81 0 
   512.39 3.7891e-18    530.88 0 
   519.52 4.0283e-18    538.27 0 
   530.39 4.3003e-18    549.54 0 
   540.26 4.1873e-18    559.76 0 
   550.30 6.2712e-18    570.16 0 
   560.53 7.6166e-18    580.76 0 
   569.64 8.9585e-18    590.20 0 
   580.23 8.5630e-18    601.17 0 
   589.66 1.1300e-17    610.94 0 
   600.62 1.2259e-17    622.30 0 
   610.38 1.5062e-17    632.41 0 
   620.30 1.7350e-17    642.69 0 
   630.38 1.9441e-17    653.13 0 
   640.62 1.9504e-17    663.74 0 
   649.53 2.3100e-17    672.98 0 
   658.57 2.5768e-17    682.34 0 
   664.66 2.7210e-17    688.65 0 
   675.46 2.7233e-17    699.84 0 
   684.86 2.7387e-17    709.58 0 
   694.38 3.7496e-17    719.45 0 
   705.67 3.6419e-17    731.14 0 
   715.48 4.3930e-17    741.31 0 
   725.44 4.6257e-17    751.62 0 
   735.53 4.8706e-17    762.08 0 
   745.76 5.6883e-17    772.68 0 
   754.40 6.1869e-17    781.63 0 
   764.89 6.6813e-17    792.50 0 
   775.53 7.3660e-17    803.53 0 
   784.51 8.0668e-17    812.83 0 
   795.42 8.4539e-17    824.14 0 
   804.64 8.9231e-17    833.68 0 
   815.83 9.3080e-17    845.28 0 
   825.28 1.0382e-16    855.07 0 
   834.83 8.2553e-17    864.97 0 
   844.50 1.1019e-16    874.98 0 
   854.28 1.1391e-16    885.12 0 
   864.17 1.2445e-16    895.36 0 
   874.18 1.3533e-16    905.73 0 
   884.30 1.4990e-16    916.22 0 
   894.54 1.5966e-16    926.83 0 
   904.90 1.5724e-16    937.56 0 
   915.38 2.6850e-16    948.42 0 
   925.98 2.1843e-15    959.40 0 
   934.54 4.8730e-15    968.28 0 
   945.36 9.5753e-15    979.49 0 
   954.11 1.4178e-14    988.55 0 
   965.16 1.4790e-14   1000.00 0 
   974.09 2.0018e-15   1009.25 0 
   985.37 1.0684e-14   1020.94 0 
   994.49 1.2624e-14   1030.39 0 
  1006.00 2.0822e-14   1042.32 0 
  1015.31 2.0795e-14   1051.96 0 
  1024.71 9.1282e-15   1061.70 0 
  1034.19 1.3177e-14   1071.52 0 
  1046.16 2.8516e-14   1083.93 0 
  1055.84 2.8022e-14   1093.96 0 
  1065.61 2.0460e-14   1104.08 0 
  1075.47 2.5605e-14   1114.29 0 
  1085.42 1.8738e-14   1124.61 0 
  1095.47 2.7422e-14   1135.01 0 
  1105.60 2.6332e-14   1145.51 0 
  1115.83 2.4596e-14   1156.11 0 
  1126.16 2.1589e-14   1166.81 0 
  1133.96 2.9838e-14   1174.90 0 
  1144.46 2.6554e-14   1185.77 0 
  1155.05 2.9072e-14   1196.74 0 
  1165.73 2.9911e-14   1207.81 0 
  1173.81 1.9113e-14   1216.19 0 
  1184.67 2.9018e-14   1227.44 0 
  1195.64 1.7742e-14   1238.80 0 
  1203.92 1.1521e-14   1247.38 0 
  1215.06 9.2003e-15   1258.93 0 
  1226.31 1.9503e-14   1270.57 0 
  1234.81 3.1812e-14   1279.38 0 
  1246.23 3.5147e-14   1291.22 0 
  1254.87 3.2760e-14   1300.17 0 
  1263.57 2.7153e-14   1309.18 0 
  1275.26 3.7419e-14   1321.30 0 
  1284.10 3.9678e-14   1330.45 0 
  1295.98 2.8629e-14   1342.77 0 
  1304.97 2.8265e-14   1352.07 0 
  1314.01 3.8080e-14   1361.44 0 
  1326.17 3.5970e-14   1374.04 0 
  1335.36 3.0225e-14   1383.57 0 
  1344.62 3.8707e-14   1393.16 0 
  1353.94 3.7257e-14   1402.81 0 
  1366.47 3.2094e-14   1415.79 0 
  1375.94 3.4343e-14   1425.61 0 
  1385.48 3.4693e-14   1435.49 0 
  1395.08 2.9760e-14   1445.44 0 
  1404.75 3.0977e-14   1455.46 0 
  1414.49 3.1291e-14   1465.55 0 
  1424.29 3.2795e-14   1475.71 0 
  1434.16 3.2299e-14   1485.94 0 
  1440.79 3.4576e-14   1492.79 0 
  1447.44 3.5347e-14   1499.69 0 
  1454.12 3.3879e-14   1506.61 0 
  1464.20 3.0570e-14   1517.05 0 
  1474.35 3.0666e-14   1527.57 0 
  1484.56 3.1551e-14   1538.15 0 
  1494.86 3.2238e-14   1548.82 0 
  1505.22 2.9972e-14   1559.55 0 
  1512.16 2.5839e-14   1566.75 0 
  1515.65 2.8317e-14   1570.36 0 
  1526.16 2.7001e-14   1581.25 0 
  1536.74 2.2684e-14   1592.21 0 
  1543.83 2.5779e-14   1599.56 0 
  1554.53 2.4187e-14   1610.65 0 
  1565.31 2.4541e-14   1621.81 0 
  1576.16 2.6194e-14   1633.05 0 
  1583.43 2.7909e-14   1640.59 0 
  1594.41 2.8317e-14   1651.96 0 
  1605.46 2.7947e-14   1663.41 0 
  1616.59 2.8224e-14   1674.94 0 
  1624.05 2.6311e-14   1682.67 0 
  1635.31 2.8407e-14   1694.34 0 
  1646.64 2.8754e-14   1706.08 0 
  1654.24 2.6315e-14   1713.96 0 
  1665.71 2.9005e-14   1725.84 0 
  1673.40 2.5233e-14   1733.80 0 
  1677.26 2.8756e-14   1737.80 0 
  1685.00 3.0495e-14   1745.82 0 
  1696.68 2.8410e-14   1757.92 0 
  1704.51 2.6975e-14   1766.04 0 
  1716.32 2.4900e-14   1778.28 0 
  1724.25 2.4757e-14   1786.49 0 
  1736.20 2.6663e-14   1798.87 0 
  1744.21 2.5965e-14   1807.17 0 
  1756.30 2.7965e-14   1819.70 0 
  1764.41 2.5298e-14   1828.10 0 
  1776.64 2.5721e-14   1840.77 0 
  1784.84 2.6409e-14   1849.27 0 
  1793.08 2.8459e-14   1857.80 0 
  1805.51 2.8340e-14   1870.68 0 
  1813.84 2.5402e-14   1879.32 0 
  1826.41 2.6184e-14   1892.34 0 
  1834.84 2.4974e-14   1901.08 0 
  1843.31 2.2591e-14   1909.85 0 
  1856.09 2.2289e-14   1923.09 0 
  1864.66 2.3042e-14   1931.97 0 
  1873.27 2.5761e-14   1940.89 0 
  1886.25 2.3126e-14   1954.34 0 
  1894.96 2.1905e-14   1963.36 0 
  1903.70 2.3657e-14   1972.42 0 
  1916.90 2.2289e-14   1986.10 0 
  1925.75 2.1953e-14   1995.26 0 
  1934.64 2.3063e-14   2004.47 0 
  1943.56 2.3622e-14   2013.72 0 
  1957.04 2.1798e-14   2027.68 0 
  1966.07 2.4368e-14   2037.04 0 
  1975.15 2.5190e-14   2046.45 0 
  1984.26 2.3422e-14   2055.89 0 
  1993.42 2.2595e-14   2065.38 0 
  2007.24 2.3609e-14   2079.70 0 
  2016.50 2.2411e-14   2089.30 0 
  2025.81 2.3924e-14   2098.94 0 
  2035.16 2.2091e-14   2108.63 0 
  2044.56 2.3099e-14   2118.36 0 
  2053.99 2.1926e-14   2128.14 0 
  2063.47 2.1995e-14   2137.96 0 
  2073.00 2.3642e-14   2147.83 0 
  2077.78 2.1845e-14   2152.78 0 
  2087.37 2.2893e-14   2162.72 0 
  2097.00 2.1432e-14   2172.70 0 
  2106.68 2.1697e-14   2182.73 0 
  2116.41 2.1865e-14   2192.81 0 
  2126.18 2.2186e-14   2202.93 0 
  2135.99 2.0532e-14   2213.09 0 
  2145.85 2.0833e-14   2223.31 0 
  2155.75 2.1831e-14   2233.57 0 
  2165.70 2.1155e-14   2243.88 0 
  2175.70 2.0880e-14   2254.24 0 
  2185.74 2.0139e-14   2264.64 0 
  2195.83 2.1201e-14   2275.10 0 
  2205.97 2.0543e-14   2285.60 0 
  2216.15 1.9542e-14   2296.15 0 
  2226.38 1.8667e-14   2306.75 0 
  2236.66 1.9829e-14   2317.39 0 
  2246.98 1.8936e-14   2328.09 0 
  2257.35 1.8125e-14   2338.84 0 
  2262.55 1.8718e-14   2344.23 0 
  2273.00 1.9153e-14   2355.05 0 
  2283.49 1.9554e-14   2365.92 0 
  2294.03 1.8459e-14   2376.84 0 
  2304.62 1.8247e-14   2387.81 0 
  2315.26 1.7265e-14   2398.83 0 
  2325.94 1.3066e-14   2409.91 0 
  2336.68 1.6075e-14   2421.03 0 
  2347.46 1.5853e-14   2432.20 0 
  2352.88 1.6792e-14   2437.81 0 
  2363.74 1.5599e-14   2449.06 0 
  2374.65 1.5925e-14   2460.37 0 
  2385.61 1.4999e-14   2471.72 0 
  2396.62 1.6034e-14   2483.13 0 
  2407.68 1.5241e-14   2494.60 0 
  2413.23 1.5596e-14   2500.35 0 
  2424.37 1.6217e-14   2511.89 0 
  2435.56 1.5487e-14   2523.48 0 
  2446.80 1.6403e-14   2535.13 0 
  2452.44 1.6066e-14   2540.97 0 
  2463.76 1.5992e-14   2552.70 0 
  2475.14 1.5412e-14   2564.48 0 
  2486.56 1.6064e-14   2576.32 0 
  2492.29 1.4991e-14   2582.26 0 
  2503.80 1.6437e-14   2594.18 0 
  2515.35 1.4955e-14   2606.15 0 
  2526.96 1.4817e-14   2618.18 0 
  2532.79 1.4919e-14   2624.22 0 
  2544.48 1.4478e-14   2636.33 0 
  2556.23 1.5300e-14   2648.50 0 
  2562.12 1.5020e-14   2654.61 0 
  2573.95 1.5836e-14   2666.86 0 
  2585.83 1.5654e-14   2679.17 0 
  2597.76 1.5509e-14   2691.54 0 
  2603.75 1.4982e-14   2697.74 0 
  2615.77 1.4844e-14   2710.19 0 
  2627.84 1.5258e-14   2722.70 0 
  2633.90 1.5328e-14   2728.98 0 
  2646.06 1.6198e-14   2741.57 0 
  2652.16 1.6123e-14   2747.89 0 
  2664.40 1.5011e-14   2760.58 0 
  2676.70 1.5609e-14   2773.32 0 
  2682.87 1.5359e-14   2779.71 0 
  2695.25 1.4905e-14   2792.54 0 
  2707.69 1.5076e-14   2805.43 0 
  2713.93 1.4597e-14   2811.90 0 
  2726.46 1.4663e-14   2824.88 0 
  2732.74 1.5248e-14   2831.39 0 
  2745.36 1.3683e-14   2844.46 0 
  2758.03 1.3713e-14   2857.59 0 
  2764.39 1.4000e-14   2864.18 0 
  2777.15 1.4557e-14   2877.40 0 
  2783.55 1.4291e-14   2884.03 0 
  2796.40 1.2051e-14   2897.34 0 
  2802.85 1.2853e-14   2904.02 0 
  2815.78 1.4453e-14   2917.43 0 
  2822.27 1.4620e-14   2924.15 0 
  2835.30 1.3864e-14   2937.65 0 
  2841.84 1.3673e-14   2944.42 0 
  2854.95 1.3609e-14   2958.01 0 
  2868.13 1.4184e-14   2971.67 0 
  2874.74 1.3892e-14   2978.52 0 
  2888.01 1.3922e-14   2992.27 0 
  2894.67 1.3668e-14   2999.16 0 
  2908.03 1.4277e-14   3013.01 0 
  2928.19 1.3918e-14   3033.89 0 
  2948.49 1.3693e-14   3054.92 0 
  2968.92 1.3691e-14   3076.10 0 
  2989.50 1.3625e-14   3097.42 0 
  3010.23 1.3654e-14   3118.89 0 
  3031.09 1.3527e-14   3140.51 0 
  3052.10 1.3338e-14   3162.28 0 
  3073.26 1.3183e-14   3184.20 0 
  3087.45 1.3151e-14   3198.90 0 
  3108.85 1.2879e-14   3221.07 0 
  3130.39 1.2729e-14   3243.40 0 
  3152.09 1.2697e-14   3265.88 0 
  3166.64 1.2492e-14   3280.95 0 
  3188.59 1.2093e-14   3303.70 0 
  3210.70 1.2230e-14   3326.60 0 
  3232.95 1.1976e-14   3349.66 0 
  3247.87 1.1975e-14   3365.12 0 
  3270.39 1.1944e-14   3388.44 0 
  3293.06 1.1859e-14   3411.93 0 
  3308.26 1.1775e-14   3427.68 0 
  3323.53 1.1800e-14   3443.50 0 
  3331.19 1.1772e-14   3451.44 0 
  3338.87 1.1346e-14   3459.39 0 
  3346.56 1.1555e-14   3467.37 0 
  3354.28 1.1240e-14   3475.36 0 
  3362.01 1.1290e-14   3483.37 0 
  3369.76 1.1212e-14   3491.40 0 
  3377.53 1.1057e-14   3499.45 0 
  3385.32 1.1444e-14   3507.52 0 
  3393.12 1.1523e-14   3515.60 0 
  3400.94 1.1736e-14   3523.71 0 
  3408.78 1.1078e-14   3531.83 0 
  3416.64 1.1309e-14   3539.97 0 
  3424.52 1.1413e-14   3548.13 0 
  3432.41 1.1517e-14   3556.31 0 
  3440.32 1.1408e-14   3564.51 0 
  3448.25 1.1040e-14   3572.73 0 
  3456.20 1.0708e-14   3580.96 0 
  3464.17 1.0653e-14   3589.22 0 
  3472.16 1.0844e-14   3597.49 0 
  3480.16 1.0788e-14   3605.79 0 
  3488.18 1.0881e-14   3614.10 0 
  3496.22 1.0875e-14   3622.43 0 
  3504.28 1.0597e-14   3630.78 0 
  3512.36 1.0517e-14   3639.15 0 
  3520.46 1.0682e-14   3647.54 0 
  3528.57 1.0602e-14   3655.95 0 
  3536.71 1.0768e-14   3664.37 0 
  3544.86 1.0836e-14   3672.82 0 
  3550.73 9.7251e-15   3678.90 1 
  3553.38 1.1143e-14   3681.65 1 
  3556.03 1.0937e-14   3684.40 1 
  3558.69 1.0131e-14   3687.15 1 
  3561.34 1.0475e-14   3689.90 1 
  3564.00 1.0980e-14   3692.65 1 
  3566.65 1.1419e-14   3695.40 1 
  3569.31 8.7757e-15   3698.15 1 
  3571.96 9.4931e-15   3700.90 1 
  3574.61 9.6744e-15   3703.65 1 
  3577.27 1.0351e-14   3706.40 1 
  3579.92 9.1211e-15   3709.15 1 
  3582.58 9.5567e-15   3711.90 1 
  3585.23 9.4171e-15   3714.65 1 
  3587.88 9.2429e-15   3717.40 1 
  3590.54 1.0307e-14   3720.15 1 
  3593.19 9.7559e-15   3722.90 1 
  3595.85 9.5317e-15   3725.65 1 
  3598.50 8.2089e-15   3728.40 1 
  3601.16 1.1987e-14   3731.15 1 
  3603.81 1.2235e-14   3733.90 1 
  3606.46 1.1744e-14   3736.65 1 
  3609.12 1.0571e-14   3739.40 1 
  3611.77 1.0726e-14   3742.15 1 
  3614.43 8.8459e-15   3744.90 1 
  3617.08 9.1599e-15   3747.65 1 
  3619.73 1.0473e-14   3750.40 1 
  3622.39 1.0072e-14   3753.15 1 
  3625.04 9.4577e-15   3755.90 1 
  3627.70 1.0935e-14   3758.65 1 
  3630.35 1.0842e-14   3761.40 1 
  3633.01 1.0301e-14   3764.15 1 
  3635.66 9.7824e-15   3766.90 1 
  3638.31 8.2680e-15   3769.65 1 
  3640.97 9.7547e-15   3772.40 1 
  3643.62 1.0527e-14   3775.15 1 
  3646.28 1.0947e-14   3777.90 1 
  3648.93 9.9444e-15   3780.65 1 
  3651.58 9.1017e-15   3783.40 1 
  3654.24 1.0538e-14   3786.15 1 
  3656.89 1.0527e-14   3788.90 1 
  3659.55 1.0355e-14   3791.65 1 
  3662.20 1.0567e-14   3794.40 1 
  3664.86 9.2921e-15   3797.15 1 
  3667.51 9.7964e-15   3799.90 1 
  3670.16 1.0392e-14   3802.65 1 
  3672.82 1.1162e-14   3805.40 1 
  3675.47 9.8253e-15   3808.15 1 
  3678.13 9.8600e-15   3810.90 1 
  3680.78 1.0149e-14   3813.65 1 
  3683.44 8.1201e-15   3816.40 1 
  3686.09 9.4222e-15   3819.15 1 
  3688.74 9.5370e-15   3821.90 1 
  3691.40 9.7550e-15   3824.65 1 
  3694.05 1.0666e-14   3827.40 1 
  3696.71 1.0017e-14   3830.15 1 
  3699.36 9.8160e-15   3832.90 1 
  3702.01 7.9773e-15   3835.65 1 
  3704.67 8.5903e-15   3838.40 1 
  3707.32 1.0696e-14   3841.15 1 
  3709.98 9.3525e-15   3843.90 1 
  3712.63 1.1855e-14   3846.65 1 
  3715.29 1.2228e-14   3849.40 1 
  3717.94 1.4405e-14   3852.15 1 
  3720.59 2.1135e-14   3854.90 1 
  3723.25 3.6724e-14   3857.65 1 
  3725.90 5.1587e-14   3860.40 1 
  3728.56 5.5732e-14   3863.15 1 
  3731.21 4.5011e-14   3865.90 1 
  3733.86 2.9396e-14   3868.65 1 
  3736.52 1.6806e-14   3871.40 1 
  3739.17 1.3244e-14   3874.15 1 
  3741.83 1.1612e-14   3876.90 1 
  3744.48 1.1267e-14   3879.65 1 
  3747.14 1.1939e-14   3882.40 1 
  3749.79 9.9723e-15   3885.15 1 
  3752.44 1.0299e-14   3887.90 1 
  3755.10 1.1016e-14   3890.65 1 
  3757.75 1.1399e-14   3893.40 1 
  3760.41 1.1771e-14   3896.15 1 
  3763.06 1.2868e-14   3898.90 1 
  3765.72 1.2366e-14   3901.65 1 
  3768.37 1.1905e-14   3904.40 1 
  3771.02 1.0863e-14   3907.15 1 
  3773.68 1.0754e-14   3909.90 1 
  3776.33 1.1555e-14   3912.65 1 
  3778.99 1.1765e-14   3915.40 1 
  3781.64 1.3058e-14   3918.15 1 
  3784.29 1.2895e-14   3920.90 1 
  3786.95 1.2978e-14   3923.65 1 
  3789.60 1.1367e-14   3926.40 1 
  3792.26 1.1695e-14   3929.15 1 
  3794.91 1.0973e-14   3931.90 1 
  3797.57 8.7208e-15   3934.65 1 
  3800.22 9.4988e-15   3937.40 1 
  3802.87 9.8897e-15   3940.15 1 
  3805.53 1.1624e-14   3942.90 1 
  3808.18 1.2871e-14   3945.65 1 
  3810.84 1.2942e-14   3948.40 1 
  3813.49 1.1049e-14   3951.15 1 
  3816.14 1.2064e-14   3953.90 1 
  3818.80 1.2502e-14   3956.65 1 
  3821.45 1.1571e-14   3959.40 1 
  3824.11 1.0219e-14   3962.15 1 
  3826.76 1.1508e-14   3964.90 1 
  3829.42 1.1333e-14   3967.65 1 
  3832.07 1.0043e-14   3970.40 1 
  3834.72 8.9059e-15   3973.15 1 
  3837.38 1.1108e-14   3975.90 1 
  3840.03 1.0102e-14   3978.65 1 
  3842.69 1.2173e-14   3981.40 1 
  3845.34 1.1991e-14   3984.15 1 
  3847.99 1.1892e-14   3986.90 1 
  3850.65 1.3036e-14   3989.65 1 
  3853.30 1.3056e-14   3992.40 1 
  3855.96 1.4226e-14   3995.15 1 
  3858.61 1.5279e-14   3997.90 1 
  3861.27 1.4194e-14   4000.65 1 
  3863.92 1.5975e-14   4003.40 1 
  3866.57 1.6757e-14   4006.15 1 
  3869.23 1.6929e-14   4008.90 1 
  3871.88 1.6310e-14   4011.65 1 
  3874.54 1.4685e-14   4014.40 1 
  3877.19 1.3466e-14   4017.15 1 
  3879.85 1.1498e-14   4019.90 1 
  3882.50 1.2270e-14   4022.65 1 
  3885.15 1.2942e-14   4025.40 1 
  3887.81 1.4348e-14   4028.15 1 
  3890.46 1.4390e-14   4030.90 1 
  3893.12 1.3618e-14   4033.65 1 
  3895.77 1.1140e-14   4036.40 1 
  3898.42 1.1371e-14   4039.15 1 
  3901.08 1.4186e-14   4041.90 1 
  3903.73 1.3839e-14   4044.65 1 
  3906.39 1.3815e-14   4047.40 1 
  3909.04 1.4589e-14   4050.15 1 
  3911.70 1.5980e-14   4052.90 1 
  3914.35 1.4285e-14   4055.65 1 
  3917.00 1.3656e-14   4058.40 1 
  3919.66 1.4278e-14   4061.15 1 
  3922.31 1.3259e-14   4063.90 1 
  3924.97 1.4181e-14   4066.65 1 
  3927.62 1.1626e-14   4069.40 1 
  3930.27 1.2107e-14   4072.15 1 
  3932.93 1.1712e-14   4074.90 1 
  3935.58 1.2553e-14   4077.65 1 
  3938.24 1.2962e-14   4080.40 1 
  3940.89 1.2637e-14   4083.15 1 
  3943.55 1.3484e-14   4085.90 1 
  3946.20 1.4345e-14   4088.65 1 
  3948.85 1.3286e-14   4091.40 1 
  3951.51 1.3267e-14   4094.15 1 
  3954.16 1.1260e-14   4096.90 1 
  3956.82 1.1855e-14   4099.65 1 
  3959.47 1.3102e-14   4102.40 1 
  3962.13 1.1976e-14   4105.15 1 
  3964.78 1.2718e-14   4107.90 1 
  3967.43 1.3542e-14   4110.65 1 
  3970.09 1.2605e-14   4113.40 1 
  3972.74 1.2310e-14   4116.15 1 
  3975.40 1.1836e-14   4118.90 1 
  3978.05 1.1826e-14   4121.65 1 
  3980.70 1.1686e-14   4124.40 1 
  3983.36 1.1057e-14   4127.15 1 
  3986.01 1.2834e-14   4129.90 1 
  3988.67 1.2805e-14   4132.65 1 
  3991.32 1.2931e-14   4135.40 1 
  3993.98 1.4872e-14   4138.15 1 
  3996.63 1.3140e-14   4140.90 1 
  3999.28 1.3289e-14   4143.65 1 
  4001.94 1.3458e-14   4146.40 1 
  4004.59 1.3383e-14   4149.15 1 
  4007.25 1.3828e-14   4151.90 1 
  4009.90 1.4213e-14   4154.65 1 
  4012.55 1.4367e-14   4157.40 1 
  4015.21 1.3472e-14   4160.15 1 
  4017.86 1.5323e-14   4162.90 1 
  4020.52 1.5341e-14   4165.65 1 
  4023.17 1.4906e-14   4168.40 1 
  4025.83 1.4151e-14   4171.15 1 
  4028.48 1.4135e-14   4173.90 1 
  4031.13 1.4531e-14   4176.65 1 
  4033.79 1.4454e-14   4179.40 1 
  4036.44 1.5019e-14   4182.15 1 
  4039.10 1.4742e-14   4184.90 1 
  4041.75 1.4425e-14   4187.65 1 
  4044.40 1.4737e-14   4190.40 1 
  4047.06 1.5142e-14   4193.15 1 
  4049.71 1.5142e-14   4195.90 1 
  4052.37 1.4681e-14   4198.65 1 
  4055.02 1.5072e-14   4201.40 1 
  4057.68 1.5717e-14   4204.15 1 
  4060.33 1.4276e-14   4206.90 1 
  4062.98 1.4537e-14   4209.65 1 
  4065.64 1.4916e-14   4212.40 1 
  4068.29 1.5713e-14   4215.15 1 
  4070.95 1.5179e-14   4217.90 1 
  4073.60 1.4816e-14   4220.65 1 
  4076.26 1.4402e-14   4223.40 1 
  4078.91 1.3050e-14   4226.15 1 
  4081.56 1.4314e-14   4228.90 1 
  4084.22 1.4225e-14   4231.65 1 
  4086.87 1.3593e-14   4234.40 1 
  4089.53 1.3161e-14   4237.15 1 
  4092.18 1.3688e-14   4239.90 1 
  4094.83 1.3516e-14   4242.65 1 
